Time,voltage,current,TH,Ttest,TM_1,TM_2,TM_3,FlipEvent
0.00079,28.28200,2.22010,25.62000,24.56000,25.31000,24.25000,23.25000,0
0.31017,28.42400,2.20530,25.62000,24.56000,25.31000,24.25000,23.25000,0
0.69855,28.42300,2.19490,25.62000,24.56000,25.31000,24.25000,23.25000,0
0.90211,28.42300,2.17580,25.75000,24.56000,25.31000,24.25000,23.25000,0
1.30544,28.42800,2.15830,26.25000,24.56000,25.37000,24.25000,23.25000,0
1.69438,28.43200,2.15000,26.25000,24.56000,25.50000,24.25000,23.25000,0
1.89436,28.43600,2.14200,26.50000,24.56000,25.50000,24.25000,23.25000,0
2.09593,28.44600,2.12680,26.94000,24.56000,25.81000,24.25000,23.25000,0
2.50018,28.45800,2.11250,27.44000,24.56000,26.12000,24.25000,23.25000,0
2.90306,28.47100,2.09890,28.44000,24.56000,26.50000,24.25000,23.25000,0
3.29337,28.48500,2.08600,29.12000,24.56000,26.87000,24.25000,23.25000,0
3.69882,28.49900,2.07350,29.87000,24.56000,27.87000,24.25000,23.25000,0
4.08647,28.50600,2.06760,30.56000,24.56000,27.87000,24.25000,23.25000,0
4.28950,28.52200,2.05600,31.31000,24.56000,28.44000,24.25000,23.25000,0
4.69218,28.53800,2.04480,32.88000,24.56000,29.81000,24.25000,23.25000,0
5.08194,28.54700,2.03950,32.88000,24.56000,30.44000,24.25000,23.25000,0
5.28246,28.56600,2.02900,34.50000,24.56000,31.25000,24.25000,23.25000,0
5.68646,28.58700,2.01910,35.31000,24.56000,32.00000,24.25000,23.25000,0
6.09233,28.60600,2.00910,36.13000,24.56000,32.75000,24.25000,23.25000,0
6.48003,28.62300,1.99950,36.94000,24.56000,33.56000,24.25000,23.25000,0
6.88317,28.64100,1.99000,38.81000,24.56000,35.25000,24.25000,23.25000,0
7.28658,28.65700,1.98070,39.69000,24.56000,36.19000,24.25000,23.25000,0
7.67532,28.67100,1.97160,40.50000,24.56000,37.06000,24.25000,23.25000,0
8.08013,28.68500,1.96260,42.31000,24.56000,38.81000,24.25000,23.25000,0
8.48419,28.69900,1.95390,43.19000,24.56000,39.75000,24.25000,23.25000,0
8.87545,28.71200,1.94520,44.00000,24.56000,40.69000,24.25000,23.25000,0
9.27927,28.72400,1.93680,45.94000,24.56000,41.75000,24.25000,23.25000,0
9.66772,28.73600,1.92850,46.88000,24.56000,43.56000,24.25000,23.25000,0
10.07219,28.74900,1.92040,47.75000,24.56000,44.56000,24.25000,23.25000,0
10.47641,28.76000,1.91240,49.75000,24.56000,45.56000,24.25000,23.25000,0
10.86227,28.77200,1.90460,50.69000,24.56000,47.44000,24.25000,23.25000,0
11.26553,28.78300,1.89690,51.56000,24.56000,48.38000,24.25000,23.25000,0
11.66956,28.79400,1.88930,52.63000,24.56000,49.25000,24.25000,23.25000,0
12.05843,28.80500,1.88190,54.56000,24.56000,50.31000,24.25000,23.25000,0
12.46277,28.81600,1.87460,55.44000,24.56000,52.13000,24.25000,23.25000,0
12.86865,28.82600,1.86740,56.50000,24.56000,53.13000,24.25000,23.25000,0
13.25604,28.83600,1.86040,58.38000,24.56000,53.94000,24.25000,23.25000,0
13.66137,28.84600,1.85340,59.31000,24.56000,54.81000,24.25000,23.25000,0
14.05212,28.85500,1.84660,60.38000,24.56000,56.63000,24.25000,23.25000,0
14.45453,28.86500,1.83990,62.25000,24.50000,57.44000,24.25000,23.25000,0
14.85886,28.87500,1.83320,63.13000,24.50000,58.31000,24.25000,23.25000,0
15.24908,28.88400,1.82680,64.19000,24.50000,60.00000,24.25000,23.25000,0
15.65482,28.89300,1.82040,65.12000,24.50000,60.94000,24.25000,23.25000,0
16.05759,28.90200,1.81410,67.12000,24.50000,61.75000,24.25000,23.25000,0
16.44547,28.91100,1.80780,68.12000,24.50000,62.50000,24.25000,23.25000,0
16.84892,28.92000,1.80170,69.06000,24.50000,64.19000,24.25000,23.25000,0
17.25294,28.92800,1.79570,71.00000,24.50000,65.00000,24.25000,23.25000,0
17.64106,28.93700,1.78970,71.94000,24.50000,65.75000,24.25000,23.25000,0
18.04537,28.94500,1.78390,72.87000,24.50000,67.37000,24.25000,23.25000,0
18.44933,28.95400,1.77810,74.75000,24.50000,68.12000,24.25000,23.25000,0
18.83658,28.96200,1.77240,75.69000,24.50000,69.00000,24.25000,23.25000,0
19.24397,28.97000,1.76680,76.62000,24.50000,69.75000,24.25000,23.25000,0
19.64549,28.97700,1.76130,78.56000,24.50000,71.31000,24.25000,23.25000,0
20.03253,28.98500,1.75590,79.56000,24.50000,72.06000,24.25000,23.25000,0
20.43799,28.99300,1.75050,80.50000,24.50000,72.75000,24.25000,23.25000,0
20.83041,29.00000,1.74520,82.50000,24.50000,73.56000,24.25000,23.25000,0
21.23444,29.00800,1.74000,83.44000,24.50000,74.94000,24.25000,23.25000,0
21.63544,29.01500,1.73480,84.37000,24.50000,75.75000,24.25000,23.25000,0
22.03868,29.02200,1.72980,85.25000,24.50000,76.44000,24.25000,23.25000,0
22.42869,29.02900,1.72470,87.19000,24.50000,77.81000,24.25000,23.25000,0
22.83193,29.03600,1.71980,88.06000,24.50000,78.50000,24.25000,23.25000,0
23.23531,29.04300,1.71490,88.94000,24.50000,79.12000,24.25000,23.25000,0
23.62448,29.05000,1.71010,90.81000,24.50000,79.81000,24.25000,23.25000,0
24.02536,29.05600,1.70540,91.69000,24.50000,81.19000,24.25000,23.25000,0
24.43135,29.06300,1.70070,92.50000,24.50000,81.94000,24.25000,23.25000,0
24.82113,29.06900,1.69610,94.25000,24.50000,82.62000,24.25000,23.25000,0
25.22460,29.07500,1.69160,95.06000,24.50000,83.25000,24.25000,23.25000,0
25.61440,29.08200,1.68720,95.87000,24.50000,84.94000,24.25000,23.25000,0
26.02039,29.08800,1.68280,97.50000,24.50000,85.69000,24.25000,23.25000,0
26.42320,29.09400,1.67850,98.25000,24.50000,86.56000,24.25000,23.25000,0
26.81335,29.09900,1.67430,98.94000,24.50000,88.12000,24.25000,23.25000,0
27.21810,29.10500,1.67020,99.69000,24.50000,88.94000,24.25000,23.25000,0
27.60760,29.11000,1.66630,101.00000,24.50000,89.69000,24.25000,23.25000,0
28.01449,29.11500,1.66230,101.62000,24.50000,90.37000,24.25000,23.25000,0
28.40646,29.12100,1.65850,102.31000,24.50000,91.62000,24.25000,23.25000,0
28.80820,29.12600,1.65470,103.44000,24.50000,92.25000,24.25000,23.25000,0
29.21034,29.13100,1.65100,103.94000,24.50000,92.94000,24.25000,23.25000,0
29.61309,29.13600,1.64740,104.50000,24.50000,93.56000,24.25000,23.25000,0
30.00163,29.14000,1.64390,105.50000,24.50000,94.56000,24.25000,23.25000,0
30.40291,29.14500,1.64040,106.00000,24.50000,95.06000,24.25000,23.25000,0
30.80357,29.15000,1.63700,106.56000,24.50000,95.56000,24.25000,23.25000,0
31.20862,29.15400,1.63360,107.06000,24.50000,96.00000,24.25000,23.25000,0
31.59592,29.15800,1.63040,108.06000,24.50000,96.75000,24.25000,23.25000,0
31.99863,29.16200,1.62720,108.62000,24.50000,97.19000,24.25000,23.25000,0
32.40119,29.16600,1.62410,109.12000,24.50000,97.50000,24.25000,23.25000,0
32.78978,29.17000,1.62100,110.00000,24.50000,97.81000,24.25000,23.25000,0
33.19401,29.17400,1.61800,110.50000,24.50000,98.31000,24.25000,23.25000,0
33.59975,29.17800,1.61510,110.94000,24.50000,98.50000,24.25000,23.25000,0
33.98836,29.18100,1.61220,111.81000,24.50000,98.75000,24.25000,23.25000,0
34.39069,29.18500,1.60940,112.25000,24.50000,99.12000,24.25000,23.25000,0
34.78297,29.18800,1.60660,112.62000,24.50000,99.25000,24.25000,23.25000,0
35.18828,29.19100,1.60390,113.00000,24.50000,99.37000,24.25000,23.25000,0
35.59224,29.19500,1.60130,113.75000,24.50000,99.50000,24.25000,23.25000,0
35.98179,29.19800,1.59870,114.12000,24.50000,99.62000,24.25000,23.25000,0
36.38657,29.20100,1.59610,114.50000,24.50000,99.69000,24.25000,23.25000,0
36.78551,29.20400,1.59360,115.19000,24.50000,99.69000,24.25000,23.25000,0
37.17551,29.20700,1.59120,115.50000,24.50000,99.69000,24.25000,23.25000,0
37.57657,29.20900,1.58880,115.75000,24.50000,99.69000,24.25000,23.25000,0
37.97897,29.21200,1.58650,116.44000,24.50000,99.69000,24.25000,23.25000,0
38.38303,29.21500,1.58430,116.69000,24.50000,99.69000,24.25000,23.25000,0
38.76903,29.21700,1.58200,116.94000,24.50000,99.69000,24.25000,23.25000,0
39.17052,29.22000,1.57990,117.50000,24.50000,99.75000,24.25000,23.25000,0
39.57545,29.22200,1.57780,117.75000,24.50000,99.75000,24.25000,23.25000,0
39.97898,29.22400,1.57570,118.00000,24.50000,99.75000,24.25000,23.25000,0
40.36974,29.22700,1.57360,118.25000,24.50000,99.75000,24.25000,23.25000,0
40.77198,29.22900,1.57170,118.75000,24.50000,99.75000,24.25000,23.25000,0
41.17636,29.23100,1.56970,119.00000,24.50000,99.75000,24.25000,23.25000,0
41.56434,29.23300,1.56780,119.25000,24.50000,99.75000,24.25000,23.25000,0
41.97011,29.23500,1.56590,119.75000,24.50000,99.75000,24.25000,23.25000,0
42.35993,29.23700,1.56410,119.94000,24.50000,99.75000,24.25000,23.25000,0
42.76294,29.23900,1.56220,120.12000,24.50000,99.75000,24.25000,23.25000,0
43.16548,29.24100,1.56050,120.56000,24.50000,99.75000,24.25000,23.25000,0
43.55487,29.24200,1.55870,120.75000,24.50000,99.75000,24.25000,23.25000,0
43.95957,29.24400,1.55700,120.94000,24.50000,99.75000,24.25000,23.25000,0
44.36173,29.24600,1.55530,121.25000,24.50000,99.75000,24.25000,23.25000,0
44.74949,29.24700,1.55370,121.44000,24.50000,99.75000,24.25000,23.25000,0
45.15587,29.24900,1.55210,121.69000,24.50000,99.75000,24.25000,23.25000,0
45.56002,29.25100,1.55050,121.81000,24.50000,99.75000,24.25000,23.25000,0
45.94882,29.25200,1.54890,122.12000,24.50000,99.75000,24.25000,23.25000,0
46.35318,29.25400,1.54740,122.31000,24.50000,99.75000,24.25000,23.25000,0
46.75648,29.25500,1.54590,122.44000,24.50000,99.75000,24.25000,23.25000,0
47.14315,29.25600,1.54440,122.75000,24.50000,99.75000,24.25000,23.25000,0
47.54651,29.25800,1.54290,122.87000,24.50000,99.75000,24.25000,23.25000,0
47.95079,29.25900,1.54150,123.06000,24.50000,99.75000,24.25000,23.25000,0
48.34018,29.26000,1.54010,123.37000,24.50000,99.81000,24.25000,23.25000,0
48.74491,29.26100,1.53880,123.50000,24.50000,99.81000,24.25000,23.25000,0
49.13437,29.26200,1.53750,123.62000,24.50000,99.81000,24.25000,23.25000,0
49.53696,29.26300,1.53610,123.87000,24.50000,99.81000,24.25000,23.25000,0
49.93828,29.26400,1.53490,124.00000,24.50000,99.81000,24.25000,23.25000,0
50.34306,29.26500,1.53360,124.12000,24.50000,99.81000,24.25000,23.25000,0
50.73187,0.00000,0.00000,124.25000,24.50000,99.81000,24.25000,23.25000,0
